 From CXRO
 Al Density=2.699, Angle=90.deg
 Photon Energy (eV), Atten Length (microns)
   860.000  2.06069
   860.411  2.06339
   860.822  2.06608
   861.232  2.06878
   861.643  2.07148
   862.054  2.07417
   862.465  2.07688
   862.876  2.07958
   863.287  2.08229
   863.697  2.08500
   864.108  2.08771
   864.519  2.09043
   864.930  2.09314
   865.341  2.09586
   865.752  2.09859
   866.162  2.10131
   866.573  2.10404
   866.984  2.10677
   867.395  2.10951
   867.806  2.11224
   868.216  2.11498
   868.627  2.11772
   869.038  2.12047
   869.449  2.12321
   869.860  2.12596
   870.271  2.12871
   870.681  2.13146
   871.092  2.13421
   871.503  2.13697
   871.914  2.13973
   872.325  2.14249
   872.735  2.14525
   873.146  2.14802
   873.557  2.15079
   873.968  2.15356
   874.379  2.15633
   874.790  2.15910
   875.200  2.16188
   875.611  2.16466
   876.022  2.16744
   876.433  2.17022
   876.844  2.17301
   877.255  2.17580
   877.665  2.17859
   878.076  2.18138
   878.487  2.18418
   878.898  2.18697
   879.309  2.18977
   879.719  2.19257
   880.130  2.19538
   880.541  2.19818
   880.952  2.20099
   881.363  2.20380
   881.774  2.20661
   882.184  2.20943
   882.595  2.21225
   883.006  2.21506
   883.417  2.21789
   883.828  2.22071
   884.238  2.22354
   884.649  2.22637
   885.060  2.22920
   885.471  2.23203
   885.882  2.23486
   886.293  2.23770
   886.703  2.24054
   887.114  2.24339
   887.525  2.24623
   887.936  2.24908
   888.347  2.25192
   888.758  2.25478
   889.168  2.25763
   889.579  2.26049
   889.990  2.26334
   890.401  2.26621
   890.812  2.26907
   891.222  2.27193
   891.633  2.27480
   892.044  2.27767
   892.455  2.28054
   892.866  2.28342
   893.277  2.28629
   893.687  2.28917
   894.098  2.29205
   894.509  2.29494
   894.920  2.29782
   895.331  2.30071
   895.741  2.30360
   896.152  2.30649
   896.563  2.30939
   896.974  2.31228
   897.385  2.31518
   897.796  2.31809
   898.206  2.32099
   898.617  2.32389
   899.028  2.32680
   899.439  2.32971
   899.850  2.33263
   900.260  2.33554
   900.671  2.33846
   901.082  2.34138
   901.493  2.34430
   901.904  2.34723
   902.315  2.35015
   902.725  2.35308
   903.136  2.35602
   903.547  2.35895
   903.958  2.36189
   904.369  2.36482
   904.780  2.36776
   905.190  2.37071
   905.601  2.37365
   906.012  2.37660
   906.423  2.37955
   906.834  2.38250
   907.245  2.38546
   907.655  2.38842
   908.066  2.39138
   908.477  2.39434
   908.888  2.39730
   909.299  2.40027
   909.709  2.40323
   910.120  2.40621
   910.531  2.40918
   910.942  2.41216
   911.353  2.41513
   911.764  2.41811
   912.174  2.42109
   912.585  2.42408
   912.996  2.42707
   913.407  2.43006
   913.818  2.43305
   914.228  2.43604
   914.639  2.43904
   915.050  2.44204
   915.461  2.44504
   915.872  2.44804
   916.283  2.45105
   916.693  2.45405
   917.104  2.45706
   917.515  2.46008
   917.926  2.46309
   918.337  2.46611
   918.747  2.46913
   919.158  2.47215
   919.569  2.47518
   919.980  2.47820
   920.391  2.48123
   920.802  2.48426
   921.212  2.48730
   921.623  2.49033
   922.034  2.49337
   922.445  2.49641
   922.856  2.49946
   923.267  2.50252
   923.677  2.50558
   924.088  2.50864
   924.499  2.51170
   924.910  2.51476
   925.321  2.51783
   925.731  2.52090
   926.142  2.52398
   926.553  2.52705
   926.964  2.53013
   927.375  2.53321
   927.786  2.53629
   928.196  2.53937
   928.607  2.54246
   929.018  2.54555
   929.429  2.54864
   929.840  2.55173
   930.250  2.55483
   930.661  2.55793
   931.072  2.56103
   931.483  2.56414
   931.894  2.56724
   932.305  2.57035
   932.715  2.57346
   933.126  2.57657
   933.537  2.57969
   933.948  2.58281
   934.359  2.58593
   934.770  2.58905
   935.180  2.59217
   935.591  2.59530
   936.002  2.59843
   936.413  2.60156
   936.824  2.60470
   937.234  2.60784
   937.645  2.61098
   938.056  2.61412
   938.467  2.61726
   938.878  2.62041
   939.289  2.62356
   939.699  2.62671
   940.110  2.62986
   940.521  2.63302
   940.932  2.63618
   941.343  2.63934
   941.753  2.64250
   942.164  2.64566
   942.575  2.64883
   942.986  2.65200
   943.397  2.65517
   943.808  2.65835
   944.218  2.66153
   944.629  2.66471
   945.040  2.66789
   945.451  2.67108
   945.862  2.67426
   946.273  2.67745
   946.683  2.68064
   947.094  2.68384
   947.505  2.68703
   947.916  2.69023
   948.327  2.69344
   948.737  2.69664
   949.148  2.69985
   949.559  2.70306
   949.970  2.70627
   950.381  2.70948
   950.792  2.71270
   951.202  2.71592
   951.613  2.71914
   952.024  2.72236
   952.435  2.72558
   952.846  2.72881
   953.257  2.73204
   953.667  2.73528
   954.078  2.73851
   954.489  2.74175
   954.900  2.74499
   955.311  2.74823
   955.721  2.75147
   956.132  2.75472
   956.543  2.75797
   956.954  2.76122
   957.365  2.76448
   957.776  2.76774
   958.186  2.77099
   958.597  2.77426
   959.008  2.77752
   959.419  2.78079
   959.830  2.78406
   960.240  2.78733
   960.651  2.79060
   961.062  2.79388
   961.473  2.79716
   961.884  2.80044
   962.295  2.80372
   962.705  2.80701
   963.116  2.81030
   963.527  2.81359
   963.938  2.81688
   964.349  2.82018
   964.760  2.82348
   965.170  2.82678
   965.581  2.83008
   965.992  2.83339
   966.403  2.83670
   966.814  2.84001
   967.224  2.84332
   967.635  2.84663
   968.046  2.84995
   968.457  2.85327
   968.868  2.85660
   969.279  2.85993
   969.689  2.86326
   970.100  2.86660
   970.511  2.86993
   970.922  2.87327
   971.333  2.87661
   971.743  2.87995
   972.154  2.88330
   972.565  2.88665
   972.976  2.89000
   973.387  2.89335
   973.798  2.89671
   974.208  2.90007
   974.619  2.90343
   975.030  2.90679
   975.441  2.91016
   975.852  2.91352
   976.263  2.91689
   976.673  2.92027
   977.084  2.92364
   977.495  2.92702
   977.906  2.93040
   978.317  2.93378
   978.727  2.93717
   979.138  2.94056
   979.549  2.94395
   979.960  2.94734
   980.371  2.95074
   980.782  2.95414
   981.192  2.95754
   981.603  2.96094
   982.014  2.96434
   982.425  2.96775
   982.836  2.97116
   983.247  2.97458
   983.657  2.97799
   984.068  2.98140
   984.479  2.98481
   984.890  2.98822
   985.301  2.99164
   985.711  2.99506
   986.122  2.99848
   986.533  3.00190
   986.944  3.00532
   987.355  3.00875
   987.766  3.01218
   988.176  3.01561
   988.587  3.01905
   988.998  3.02249
   989.409  3.02593
   989.820  3.02937
   990.230  3.03282
   990.641  3.03626
   991.052  3.03971
   991.463  3.04316
   991.874  3.04662
   992.285  3.05008
   992.695  3.05354
   993.106  3.05700
   993.517  3.06047
   993.928  3.06393
   994.339  3.06740
   994.750  3.07088
   995.160  3.07435
   995.571  3.07783
   995.982  3.08131
   996.393  3.08479
   996.804  3.08827
   997.214  3.09176
   997.625  3.09525
   998.036  3.09874
   998.447  3.10224
   998.858  3.10574
   999.269  3.10924
   999.679  3.11274
   1000.09  3.11623
   1000.50  3.11973
   1000.91  3.12323
   1001.32  3.12673
   1001.73  3.13023
   1002.14  3.13374
   1002.56  3.13725
   1002.97  3.14076
   1003.38  3.14427
   1003.79  3.14779
   1004.20  3.15131
   1004.61  3.15483
   1005.02  3.15835
   1005.43  3.16188
   1005.84  3.16541
   1006.25  3.16894
   1006.66  3.17247
   1007.07  3.17601
   1007.48  3.17955
   1007.90  3.18309
   1008.31  3.18663
   1008.72  3.19018
   1009.13  3.19373
   1009.54  3.19728
   1009.95  3.20083
   1010.36  3.20439
   1010.77  3.20795
   1011.18  3.21151
   1011.59  3.21507
   1012.00  3.21864
   1012.41  3.22221
   1012.83  3.22578
   1013.24  3.22935
   1013.65  3.23293
   1014.06  3.23651
   1014.47  3.24009
   1014.88  3.24367
   1015.29  3.24726
   1015.70  3.25085
   1016.11  3.25437
   1016.52  3.25787
   1016.93  3.26136
   1017.34  3.26486
   1017.76  3.26835
   1018.17  3.27185
   1018.58  3.27536
   1018.99  3.27886
   1019.40  3.28237
   1019.81  3.28588
   1020.22  3.28940
   1020.63  3.29291
   1021.04  3.29643
   1021.45  3.29995
   1021.86  3.30347
   1022.27  3.30699
   1022.69  3.31052
   1023.10  3.31405
   1023.51  3.31758
   1023.92  3.32112
   1024.33  3.32465
   1024.74  3.32819
   1025.15  3.33173
   1025.56  3.33527
   1025.97  3.33882
   1026.38  3.34237
   1026.79  3.34591
   1027.20  3.34947
   1027.62  3.35302
   1028.03  3.35658
   1028.44  3.36014
   1028.85  3.36370
   1029.26  3.36727
   1029.67  3.37083
   1030.08  3.37440
   1030.49  3.37797
   1030.90  3.38155
   1031.31  3.38512
   1031.72  3.38870
   1032.13  3.39228
   1032.55  3.39591
   1032.96  3.39956
   1033.37  3.40322
   1033.78  3.40688
   1034.19  3.41054
   1034.60  3.41420
   1035.01  3.41787
   1035.42  3.42154
   1035.83  3.42521
   1036.24  3.42888
   1036.65  3.43256
   1037.06  3.43624
   1037.47  3.43992
   1037.89  3.44360
   1038.30  3.44729
   1038.71  3.45097
   1039.12  3.45467
   1039.53  3.45836
   1039.94  3.46206
   1040.35  3.46576
   1040.76  3.46946
   1041.17  3.47316
   1041.58  3.47687
   1041.99  3.48058
   1042.40  3.48429
   1042.82  3.48800
   1043.23  3.49172
   1043.64  3.49543
   1044.05  3.49916
   1044.46  3.50288
   1044.87  3.50661
   1045.28  3.51033
   1045.69  3.51406
   1046.10  3.51780
   1046.51  3.52153
   1046.92  3.52527
   1047.33  3.52901
   1047.75  3.53276
   1048.16  3.53650
   1048.57  3.54025
   1048.98  3.54400
   1049.39  3.54783
   1049.80  3.55167
   1050.21  3.55551
   1050.62  3.55935
   1051.03  3.56319
   1051.44  3.56703
   1051.85  3.57088
   1052.26  3.57473
   1052.68  3.57859
   1053.09  3.58244
   1053.50  3.58630
   1053.91  3.59016
   1054.32  3.59403
   1054.73  3.59789
   1055.14  3.60176
   1055.55  3.60563
   1055.96  3.60951
   1056.37  3.61339
   1056.78  3.61727
   1057.19  3.62115
   1057.61  3.62503
   1058.02  3.62892
   1058.43  3.63281
   1058.84  3.63671
   1059.25  3.64060
   1059.66  3.64450
   1060.07  3.64840
   1060.48  3.65231
   1060.89  3.65621
   1061.30  3.66012
   1061.71  3.66403
   1062.12  3.66795
   1062.54  3.67187
   1062.95  3.67579
   1063.36  3.67971
   1063.77  3.68363
   1064.18  3.68756
   1064.59  3.69149
   1065.00  3.69543